n,F(n),|F(n) - F(Nmax)|,log10_error
1000,-0.6596682723489188,0.009800624790184731,-2.0087462371360427
1022,-0.659851171425655,0.009617725713448544,-2.0169276126681526
1045,-0.6600349414637785,0.009433955675325012,-2.0253061685828952
1068,-0.6602110344986891,0.009257862640414394,-2.0334892671644216
1092,-0.660387658725095,0.009081238414008541,-2.041854922437503
1117,-0.6605650258981044,0.008903871240999117,-2.050421128966239
1142,-0.6607343423215517,0.00873455481755181,-2.05875922522114
1167,-0.660897379299753,0.008571517839350506,-2.06694226665481
1194,-0.6610659686632085,0.008402928475894966,-2.075569333071828
1220,-0.661222124701049,0.008246772438054495,-2.083715989220155
1248,-0.6613833742309718,0.008085522908131693,-2.0922918880924493
1276,-0.6615382938951161,0.007930603243987422,-2.1006937766709566
1304,-0.6616872445865007,0.007781652552602769,-2.108928164158851
1334,-0.6618401742482083,0.007628722890895223,-2.117548160322984
1363,-0.6619823600704654,0.0074865370686381105,-2.125719020718866
1394,-0.6621279074504034,0.007340989688700117,-2.1342453859467727
1425,-0.6622678404430236,0.007201056696079955,-2.1426037697348774
1457,-0.6624065456816982,0.007062351457405303,-2.1510506736019046
1490,-0.6625435498298585,0.006925347309244989,-2.1595584416561
1523,-0.6626754793154399,0.006793417823663606,-2.1679116736572976
1557,-0.6628056781415979,0.00666321899750566,-2.1763159127043568
1592,-0.6629343429500943,0.006534554189009167,-2.184784036217735
1628,-0.663061444541862,0.006407452597241514,-2.193314598071161
1665,-0.6631867806906269,0.006282116448476649,-2.201894017561502
1702,-0.663306989159062,0.006161907980041459,-2.210284791585229
1740,-0.6634254761283571,0.006043421010746397,-2.2187171498728357
1779,-0.6635425716747865,0.005926325464317039,-2.2272145014426044
1819,-0.6636576313422055,0.0058112657968980574,-2.2357292602545296
1860,-0.663770508749792,0.005698388389311471,-2.244247953554526
1901,-0.6638793805854457,0.005589516553657803,-2.2526257533225675
1944,-0.6639885818854523,0.0054803152536512245,-2.261194458124552
1988,-0.664096003876748,0.00537289326235546,-2.269791787019335
2032,-0.664199009570657,0.005269887568446485,-2.278198650237956
2078,-0.6643024805437052,0.005166416595398293,-2.2868105772978162
2124,-0.664401651268424,0.0050672458706795265,-2.2952280225518855
2172,-0.6645010251251222,0.0049678720139813,-2.3038296013052424
2221,-0.6645985134463277,0.004870383692775815,-2.312436823366215
2271,-0.6646938163791194,0.004775080759984118,-2.3210192788825674
2321,-0.6647854007205938,0.004683496418509736,-2.3294298075406914
2374,-0.6648784365414674,0.004590460597636126,-2.3381437360366264
2427,-0.6649677874569562,0.004501109682147342,-2.346680404130844
2481,-0.6650551270382846,0.004413770100818892,-2.355190291597105
2537,-0.6651421258351952,0.00432677130390835,-2.3638360592906356
2594,-0.6652269946656959,0.0042419024734076105,-2.3724393206727834
2652,-0.665309832682557,0.004159064456546568,-2.381004348953273
2711,-0.6653908978194224,0.004077999319681114,-2.389552851009758
2772,-0.6654711199077187,0.003997777231384836,-2.3981814097866323
2834,-0.6655495603285417,0.00391933681056178,-2.406787413561159
2898,-0.6656271093242275,0.0038417878148759854,-2.4154666252560113
2963,-0.6657028399140377,0.003766057225065844,-2.4241130851845942
3029,-0.665776544156698,0.0036923529824055557,-2.432696787878199
3097,-0.6658493657736801,0.0036195313654233674,-2.4413476555954805
3166,-0.6659203006578956,0.0035485964812078663,-2.4499433824355
3237,-0.6659903909343156,0.0034785062047879567,-2.4586072176325446
3310,-0.6660595094739579,0.0034093876651456467,-2.4673236144174964
3384,-0.6661267282791296,0.0033421688599739596,-2.4759716115634283
3460,-0.6661929986320406,0.003275898507062891,-2.4846695618888277
3538,-0.6662582627736888,0.0032106343654146885,-2.4934091500935147
3617,-0.6663217117747778,0.0031471853643256775,-2.5020776770635846
3698,-0.6663840612719651,0.003084835867138369,-2.5107679382409174
3781,-0.6664454049497384,0.003023492189365151,-2.519491148976345
3866,-0.6665056689656541,0.002963228173449406,-2.528234905842029
3952,-0.6665641795479216,0.002904717591181938,-2.536896085150875
4041,-0.6666223067278997,0.002846590411203831,-2.545675017907812
4132,-0.6666792950670223,0.002789602072081232,-2.554457743043497
4224,-0.6667345732683313,0.002734323870772215,-2.5631500461109766
4319,-0.6667894055108429,0.002679491628260644,-2.5719475955175093
4416,-0.666843026652679,0.0026258704864244864,-2.580726698055476
4515,-0.6668955851907448,0.0025733119483587474,-2.5895075634830387
4616,-0.6669470330163211,0.0025218641227824357,-2.5982783167778125
4719,-0.666997371251316,0.00247152588778754,-2.607034836198796
4825,-0.6670470789435615,0.0024218181955419915,-2.6158584621989283
4933,-0.667095667936479,0.002373229202624505,-2.6246603163009374
5044,-0.6671435622693933,0.002325334869710205,-2.6335144958514403
5157,-0.6671903633449738,0.002278533794129678,-2.642344525784538
5273,-0.6672364480394986,0.0022324490996049606,-2.6512184343487997
5391,-0.6672813989081813,0.0021874982309222357,-2.6600522895289735
5512,-0.6673256311576232,0.0021432659814802912,-2.668923929228278
5635,-0.6673687858275382,0.002100111311565289,-2.67775768587683
5762,-0.6674115235901841,0.002057373548919439,-2.6866868480691064
5891,-0.6674531770587772,0.0020157200803263553,-2.6955697777871235
6023,-0.6674940626688274,0.0019748344702761322,-2.704469300877227
6158,-0.667534167135853,0.0019347300032505066,-2.7133796333736986
6296,-0.6675734987507989,0.0018953983883046588,-2.7222994930003765
6437,-0.6676120708678541,0.00185682627124939,-2.73122872790655
6582,-0.6676500819165455,0.0018188152225580012,-2.7402114196278737
6729,-0.667687092319787,0.001781804819316557,-2.7491398707459984
6880,-0.6677235376232282,0.0017453595158752888,-2.7581151018400636
7034,-0.6677592097234542,0.0017096874156493636,-2.767083284969169
7192,-0.6677943064235049,0.0016745907155986117,-2.7760913209716693
7353,-0.6678286221064049,0.0016402750326985904,-2.7850833256298566
7518,-0.6678623475529989,0.001606549586104622,-2.7941058654194815
7686,-0.667895293893373,0.001573603245730526,-2.8031047573074517
7859,-0.6679278609994946,0.0015410361396088756,-2.8121871763051542
8035,-0.667959614256245,0.0015092828828585647,-2.821229353365194
8215,-0.6679907740958969,0.0014781230432066028,-2.830289412516648
8399,-0.6680213362553873,0.0014475608837162257,-2.839363160998848
8587,-0.6680512790496882,0.0014176180894153179,-2.8484407536376612
8780,-0.66808076271489,0.001388134424213483,-2.8575684756193693
8977,-0.6681096409941278,0.0013592561449756735,-2.866698694947187
9178,-0.6681378962558063,0.0013310008832971842,-2.875821656312729
9384,-0.6681656748280418,0.0013032223110617247,-2.88498149354911
9594,-0.6681928374314323,0.0012760597076711955,-2.8941290042155927
9809,-0.6682195249592794,0.0012493721798241264,-2.90330816885853
10029,-0.6682457076292369,0.0012231895098666623,-2.9125062521105813
10254,-0.6682713866752097,0.001197510463893825,-2.921720683014449
10484,-0.668296574019963,0.001172323119140506,-2.93095267029829
10719,-0.6683212541605421,0.0011476429785614028,-2.9401931960459855
10959,-0.6683454314249071,0.0011234657141964144,-2.949440176794038
11205,-0.6683691991509058,0.0010996979881977564,-2.958726569449191
11456,-0.6683924591520766,0.0010764379870269458,-2.9680109845750544
11713,-0.6684153054782587,0.0010535916608448437,-2.9773276754640787
11975,-0.6684376437740018,0.0010312533651016809,-2.9866346212854546
12244,-0.6684596381814629,0.0010092589576405908,-2.9959973873359136
12518,-0.6684811289874109,0.0009877681516926584,-3.0053449807732933
12799,-0.6685022701186452,0.0009666270204583549,-3.0147410690440797
13086,-0.6685229727511858,0.0009459243879177404,-3.0241435773640615
13379,-0.6685432527739312,0.0009256443651722845,-3.0335558382743626
13679,-0.6685631642791943,0.0009057328599092473,-3.0429998758054504
13986,-0.668582699895641,0.0008861972434625054,-3.0524696051855678
14299,-0.6686018138693989,0.0008670832697046382,-3.061939193369571
14620,-0.6686206058174783,0.0008482913216252275,-3.071454975989677
14948,-0.6686390262415448,0.0008298708975587044,-3.0809894652611503
15283,-0.6686570678537596,0.0008118292853439568,-3.0905352863103324
15625,-0.6686747322780249,0.0007941648610786389,-3.100089332806329
15975,-0.6686920718979259,0.0007768252411776144,-3.1096766714547655
16334,-0.6687091289858164,0.0007597681532871547,-3.119318914442158
16700,-0.6687258035228613,0.0007430936162422519,-3.1289564696091454
17074,-0.6687421470771342,0.0007267500619693168,-3.1386149225256377
17457,-0.668758199498084,0.0007106976410194976,-3.1483151260855244
17848,-0.6687739140576197,0.0006949830814838576,-3.1580257676510897
18248,-0.6687893322381745,0.0006795649009290194,-3.167769060242212
18657,-0.6688044511864765,0.0006644459526270463,-3.17754033967303
19076,-0.668819303930179,0.0006495932089245482,-3.1873585240101256
19503,-0.6688338208012096,0.0006350763378939472,-3.197174068198617
19940,-0.6688480687765644,0.000620828362539072,-3.207028450556504
20387,-0.6688620463506924,0.0006068507884111618,-3.2169180794942616
20844,-0.6688757481249213,0.0005931490141821705,-3.2268361870620437
21312,-0.6688892050878618,0.0005796920512417536,-3.2368026546499493
21789,-0.6689023595748652,0.0005665375642383008,-3.2467712889770155
22278,-0.668915289089001,0.0005536080501025165,-3.256797603360398
22777,-0.6689279443977298,0.0005409527413736681,-3.266840674000873
23288,-0.668940370469246,0.0005285266698574764,-3.2769330929739673
23810,-0.6689525427043463,0.0005163544347571714,-3.2870520886492676
24344,-0.6689644844468831,0.0005044126922204573,-3.2972139940815937
24889,-0.6689761719492802,0.0004927251898233509,-3.30739523451495
25447,-0.66898764675022,0.0004812503888834696,-3.3176289065434394
26018,-0.6689989062951973,0.0004699908439061984,-3.3279106026594887
26601,-0.669009930035359,0.0004589671037444898,-3.338218441203972
27197,-0.6690207380987501,0.00044815904035344634,-3.348567838477775
27807,-0.6690313445143338,0.00043755262476974366,-3.35896970658982
28430,-0.6690417316854976,0.0004271654536058822,-3.369403877503386
29068,-0.6690519325856716,0.00041696455343187555,-3.379900863259481
29719,-0.6690619133796333,0.00040698375947023635,-3.390422920782605
30385,-0.6690717042952624,0.00039719284384109876,-3.400998584719253
31067,-0.6690813186487734,0.0003875784903301094,-3.411640333247053
31763,-0.6690907266432965,0.00037817049580701756,-3.4223123570563834
32475,-0.6690999546546175,0.0003689424844860456,-3.4330413319906192
33203,-0.6691090029372645,0.0003598942018390172,-3.443825150095086
33947,-0.6691178695490088,0.0003510275900947546,-3.4546587474800314
34708,-0.6691265653442773,0.0003423317948262339,-3.4655527629236844
35486,-0.6691350899764736,0.0003338071626298733,-3.4765043487314995
36282,-0.66914345258313,0.00032544455597349753,-3.4875229889260444
37095,-0.669151642880395,0.0003172542587085436,-3.498592539379178
37927,-0.6691596795100696,0.0003092176290339088,-3.509735754165429
38777,-0.6691675522051478,0.00030134493395572726,-3.520936105253201
39646,-0.6691752689569037,0.000293628182199801,-3.5322022635159125
40535,-0.6691828389172124,0.00028605822189109453,-3.5435455652183
41443,-0.6691902522039511,0.0002786449351523945,-3.554948846579996
42372,-0.6691975241928119,0.0002713729462916481,-3.566433450198342
43322,-0.6692046551085868,0.0002642420305166704,-3.577998102052045
44293,-0.6692116432633032,0.000257253875800334,-3.589638073412884
45286,-0.6692184951992584,0.00025040193984515735,-3.6013623110016066
46301,-0.6692252106206678,0.0002436865184357595,-3.6131684967935787
47339,-0.6692317952358093,0.00023710190329417902,-3.625064959784605
48401,-0.669238254075376,0.0002306430637275536,-3.6370596016676577
49485,-0.669244575121847,0.00022432201725652856,-3.649128098223779
50595,-0.6692507811845949,0.000218115954508602,-3.6613125659590104
51729,-0.6692568600336248,0.0002120371054786796,-3.67358813296484
52889,-0.669262821936275,0.0002060752028285595,-3.685974264031726
54074,-0.6692686609289057,0.0002002362101978239,-3.6984573830649756
55286,-0.6692743868342726,0.00019451030483086384,-3.7110573855329716
56526,-0.6692800034261284,0.00018889371297514668,-3.7237824966342266
57793,-0.6692855059038392,0.00018339123526434076,-3.7366214242128426
59088,-0.6692908976204552,0.00017799951864827523,-3.749581172121896
60413,-0.6692961870864559,0.00017271005264762884,-3.7626823834381318
61767,-0.6693013689998696,0.00016752813923393006,-3.7759122352681884
63152,-0.6693064508196208,0.00016244631948270083,-3.789290123940181
64567,-0.669311428620127,0.00015746851897646685,-3.802806257121156
66015,-0.6693163121233743,0.0001525850157292341,-3.816488113207023
67494,-0.6693210943009231,0.00014780283818038864,-3.830317226331945
69007,-0.6693257847108824,0.0001431124282210705,-3.8443226494445715
70554,-0.6693303823322106,0.00013851480689286433,-3.858503799103881
72136,-0.6693348899563153,0.00013400718278822055,-3.8728719228166386
73753,-0.6693393070128844,0.000129590126219159,-3.887428087137432
75406,-0.6693436358318092,0.00012526130729428875,-3.9021830600805587
77096,-0.6693478789192462,0.0001210182198573273,-3.9171492397016063
78825,-0.6693520405280797,0.00011685661102378564,-3.9323467128829406
80592,-0.6693561177901235,0.00011277934898001885,-3.947770416709906
82398,-0.6693601129964081,0.00010878414269543946,-3.9634344064924263
84245,-0.6693640301836568,0.0001048669554467585,-3.9793613404810815
86134,-0.6693678707192935,0.00010102641981002414,-3.9955650373334617
88065,-0.6693716344078355,9.726273126797746e-05,-4.0120535390249215
90039,-0.6693753229165726,9.357422253086778e-05,-4.028843772570011
92057,-0.6693789377699647,8.995936913880342e-05,-4.045953598817744
94121,-0.66938248217268,8.64149664234759e-05,-4.063411034462824
96230,-0.6693859540263225,8.294311278100874e-05,-4.081219669981791
98388,-0.6693893597414367,7.95373976668623e-05,-4.0994286225203975
100593,-0.6693926957653382,7.620137376529446e-05,-4.118037199089417
102848,-0.6693959662917142,7.293084738935196e-05,-4.137088740305347
105153,-0.6693991710988871,6.972604021637796e-05,-4.156604997938741
107511,-0.6694023139270464,6.658321205710305e-05,-4.176635257767109
109921,-0.6694053931835703,6.35039555332284e-05,-4.197199222538705
112385,-0.6694084111995051,6.04859395983981e-05,-4.218345568562533
114904,-0.6694113688864398,5.7528252663696655e-05,-4.2401188168321235
117480,-0.6694142682936609,5.462884544260582e-05,-4.262577978017432
120113,-0.6694171093557839,5.178778331960121e-05,-4.285772677757317
122806,-0.6694198947652149,4.9002373888606954e-05,-4.309782880343936
125558,-0.6694226234198082,4.6273719295331084e-05,-4.334665592254529
128373,-0.6694252989899935,4.359814911003568e-05,-4.360531947620418
131251,-0.6694279211852954,4.097595380814223e-05,-4.387470928451989
134193,-0.669430490703385,3.840643571850766e-05,-4.415595995350053
137201,-0.669433009083193,3.5888055910482386e-05,-4.445050067167397
140276,-0.669435476927648,3.342021145547047e-05,-4.475990806577473
143421,-0.669437896417874,3.10007212295238e-05,-4.508628202218671
146636,-0.6694402673101689,2.8629828934589874e-05,-4.5431812469132815
149923,-0.6694425908984062,2.63062406973269e-05,-4.5799412104873864
153284,-0.6694448683441541,2.4028794949448873e-05,-4.619268008635449
156720,-0.6694471001162978,2.1797022805691846e-05,-4.661602821411806
160233,-0.6694492874074945,1.9609731608971614e-05,-4.707528350316932
163825,-0.6694514311859407,1.7465953162765224e-05,-4.757807708793364
167497,-0.6694535318734047,1.5365265698785713e-05,-4.813459925448684
171252,-0.669455590995489,1.3306143614499888e-05,-4.875947793482166
175090,-0.6694576084212628,1.128871784072949e-05,-4.947355381929524
179015,-0.6694595860668827,9.311072220796746e-06,-5.031000304758425
183028,-0.6694615241915863,7.372947517181316e-06,-5.132358857522329
187131,-0.6694634236254793,5.473513624232318e-06,-5.2617337965672375
191326,-0.6694652851151188,3.6120239846892943e-06,-5.442249374531393
195615,-0.6694671093869857,1.7877521177878108e-06,-5.7476926988175
200000,-0.6694688971391035,0.0,-300.0
